Time (s),Channel 1 (V),Channel 2 (V)
-0.0009366496390658173,-0.02140850551226159,0.0270238177673297
-0.0009361596390658172,-0.01692591543967214,0.02634313751208809
-0.0009356696390658175,-0.01347776922999073,0.02770449802257193
-0.0009351796390658174,-0.009339993778371148,0.02804483815019304
-0.0009346896390658172,-0.007615920673527146,0.029065858533057
-0.0009341996390658175,-0.002098886738039392,0.03042721904354021
-0.0009337096390658174,0.002383703334550996,0.02838517827781415
-0.0009332196390658173,0.005142220302297384,0.02872551840543527
-0.0009327296390658172,0.009624810374886831,0.03144823942640495
-0.0009322396390658175,0.01307295658456824,0.03314994006450974
-0.0009317496390658174,0.01858999052006102,0.03383062031975197
-0.0009312596390658172,0.0220381367297462,0.03383062031975243
-0.0009307696390658175,0.02686554142329798,0.03485164070261484
-0.0009302796390658174,0.03031368763298316,0.03417096044737308
-0.0009297896390658173,0.03445146308460274,0.02974653878829861
-0.0009292996390658176,0.03720998005234787,0.02634313751208902
-0.0009288096390658175,0.04203738474590531,0.02668347763970859
-0.0009283196390658173,0.04479590171365169,0.02668347763970859
-0.0009278296390658172,0.046864789439464,0.02634313751208809
-0.0009273396390658175,0.05238182337495174,0.02770449802257131
-0.0009268496390658174,0.05617478420560554,0.02804483815019304
-0.0009263596390658173,0.060312559657227,0.02940619866067734
-0.0009258696390658176,0.06445033510884281,0.02906585853305654
-0.0009253796390658175,0.06755366669755938,0.02804483815019304
-0.0009248896390658173,0.07376032987498876,0.02872551840543527
-0.0009243996390658172,0.07720847608467252,0.02872551840543542
-0.0009239096390658175,0.07893254918951245,0.02906585853305622
-0.0009234196390658174,0.08238069539919622,0.02872551840543527
-0.0009229296390658173,0.08686328547178629,0.02906585853305669
-0.0009224396390658176,0.09169069016533808,0.0297465387882983
-0.0009219496390658174,0.09548365099599156,0.03280959993688862
-0.0009214596390658173,0.09824216796373794,0.03110789929878306
-0.0009209696390658172,0.1030695726572957,0.03076755917116195
-0.0009204796390658175,0.1065177188669755,0.03076755917116195
-0.0009199896390658174,0.1085866065927869,0.03314994006450974
-0.0009194996390658172,0.1134140112863461,0.03553232095785799
-0.0009190096390658176,0.1199654890847378,0.03655334134072041
-0.0009185196390658174,0.1223791914315188,0.03655334134072087
-0.0009180296390658173,0.1258273376412018,0.03757436172358421
-0.0009175396390658172,0.1306547423347586,0.03655334134071855
-0.0009170496390658175,0.1320340008186312,0.03144823942640417
-0.0009165596390658174,0.1361717762702507,0.02906585853305638
-0.0009160696390658172,0.1413439955847766,0.02940619866067734
-0.0009155796390658175,0.1444473271734885,0.02906585853305654
-0.0009150896390658174,0.1485851026251095,0.02974653878829861
-0.0009145996390658173,0.1523780634557608,0.03008687891591972
-0.0009141096390658176,0.1565158389073785,0.03076755917116164
-0.0009136196390658175,0.1599639851170633,0.03076755917116195
-0.0009131296390658173,0.1637569459477146,0.03076755917116195
-0.0009126396390658172,0.1682395360203042,0.03212891968164593
-0.0009121496390658175,0.1720324968509521,0.03110789929878352
-0.0009116596390658174,0.1761702723025734,0.03178857955402529
-0.0009111696390658173,0.1785839746493514,0.03349028019213085
-0.0009106796390658176,0.1820321208590329,0.03417096044737276
-0.0009101896390658175,0.1865147109316223,0.03451130057499419
-0.0009096996390658173,0.1889284132784004,0.03689368146834199
-0.0009092096390658172,0.1934110033509905,0.0389357222340682
-0.0009087196390658175,0.1982384080445423,0.03791470185120579
-0.0009082296390658174,0.2013417396332591,0.03791470185120532
-0.0009077396390658173,0.2041002566010073,0.04029708274455405
-0.0009072496390658176,0.2078932174316551,0.04233912351027887
-0.0009067596390658174,0.2130654367461813,0.04404082414838537
-0.0009062696390658173,0.2172032121978009,0.04642320504173315
-0.0009057796390658172,0.2220306168913586,0.04778456555221761
-0.0009052896390658175,0.2254787631010385,0.04778456555221761
-0.0009047996390658174,0.228926909310723,0.04778456555221761
-0.0009043096390658173,0.2323750555204072,0.04574252478649031
-0.0009038196390658176,0.2351335724881511,0.04438116427600709
-0.0009033296390658174,0.2389265333188036,0.04438116427600648
-0.0009028396390658173,0.2423746795284866,0.04642320504173315
-0.0009023496390658172,0.2468572696010762,0.04744422542459711
-0.0009018596390658175,0.2506502304317258,0.04880558593508095
-0.0009013696390658174,0.2540983766414088,0.05050728657318651
-0.0009008796390658172,0.2585809667139981,0.05220898721129286
-0.0009003896390658175,0.26168429830271,0.05391068784939687
-0.0008998996390658174,0.2665117029962675,0.0552720483598821
-0.0008994096390658173,0.2689254053430456,0.05697374899798766
-0.0008989196390658172,0.2734079954156349,0.0586754496360937
-0.0008984296390658175,0.2765113270043482,0.05969647001895657
-0.0008979396390658174,0.2799594732140311,0.0630998712951677
-0.0008974496390658172,0.2834076194237171,0.06446123180565387
-0.0008969596390658175,0.2899590972221088,0.0682049732094827
-0.0008964696390658174,0.291338355705985,0.07365041525142221
-0.0008959796390658173,0.2958209457785729,0.07739415665525445
-0.0008954896390658176,0.2996139066092224,0.08079755793146404
-0.0008949996390658175,0.301682794335034,0.08113789805908669
-0.0008945096390658173,0.3065101990285901,0.0835202789524345
-0.0008940196390658172,0.3096135306173064,0.08522197959053836
-0.0008935296390658175,0.3130616768269863,0.08147823818670953
-0.0008930396390658174,0.317889081520544,0.08147823818670782
-0.0008925496390658173,0.3199579692463557,0.08420095920767796
-0.0008920596390658176,0.3240957446979715,0.0869236802286444
-0.0008915696390658175,0.3278887055286246,0.0886253808667512
-0.0008910796390658173,0.3334057394641174,0.09236912227058344
-0.0008905896390658172,0.3361642564318654,0.09475150316393295
-0.0008900996390658175,0.3396124026415452,0.09849524456776178
-0.0008896096390658174,0.3423709196092932,0.1012179655887324
-0.0008891196390658173,0.3468535096818822,0.104961706992566
-0.0008886296390658176,0.349267212028658,0.1080247681411532
-0.0008881396390658174,0.3527153582383421,0.1110878292897447
-0.0008876496390658173,0.3578875775528666,0.1124491898002291
-0.0008871596390658172,0.3603012798996473,0.1158525910764416
-0.0008866696390658175,0.3661631284561058,0.1189156522250303
-0.0008861796390658174,0.3682320161819155,0.1212980331183781
-0.0008856896390658172,0.3730594208754728,0.1274241554155601
-0.0008851996390658176,0.3754731232222487,0.1318485770746305
-0.0008847096390658174,0.3792660840529011,0.1352519783508437
-0.0008842196390658173,0.3823694156416158,0.1376343592441915
-0.0008837296390658172,0.3844383033674278,0.1400167401375402
-0.0008832396390658175,0.3892657080609818,0.142058780903266
-0.0008827496390658174,0.3947827419964745,0.1437604815413716
-0.0008822596390658174,0.3978860735851892,0.1427394611585082
-0.0008817696390658173,0.4002997759319673,0.1430798012861293
-0.0008812796390658174,0.4040927367626186,0.1461428624347193
-0.0008807896390658173,0.4075408829723016,0.1495462637109305
-0.0008802996390658174,0.4116786584239212,0.1536303452423838
-0.0008798096390658175,0.4144371753916675,0.157033746518595
-0.0008793196390658173,0.4182301362223188,0.1617985083052906
-0.0008788296390658174,0.4213334678110335,0.166222929964365
-0.0008783396390658173,0.4237471701578115,0.1679246306024706
-0.0008778496390658174,0.4275401309884628,0.1706473516234395
-0.0008773596390658175,0.4313330918191141,0.1733700726444084
-0.0008768696390658174,0.4351260526497654,0.1767734739206195
-0.0008763796390658175,0.439263828101385,0.1798365350692095
-0.0008758896390658173,0.4423671596900997,0.1818785758349362
-0.0008753996390658174,0.4451256766578461,0.1856223172387685
-0.0008749096390658173,0.4485738228675291,0.190046738897843
-0.0008744196390658174,0.4534012275610853,0.1951518408121596
-0.0008739296390658175,0.4544356714239901,0.1995762624712341
-0.0008734396390658174,0.458918261496578,0.2026393236198241
-0.0008729496390658174,0.4637456661901342,0.2050217045131719
-0.0008724596390658173,0.465814553915944,0.2077444255341408
-0.0008719696390658174,0.4696075147465952,0.2104671465551097
-0.0008714796390658173,0.4734004755772465,0.208084765661762
-0.0008709896390658174,0.4768486217869295,0.2087654459170042
-0.0008704996390658175,0.4792623241337076,0.2114881669379731
-0.0008700096390658173,0.4830552849643589,0.2152319083418053
-0.0008695196390658174,0.4861586165530736,0.2210176905113642
-0.0008690296390658173,0.4909860212466298,0.2244210917875754
-0.0008685396390658174,0.4927100943514712,0.2274841529361654
-0.0008680496390658175,0.4971926844240591,0.2298665338295132
-0.0008675596390658174,0.5009856452547105,0.232248914722861
-0.0008670696390658175,0.5037441622224569,0.2366733363819355
-0.0008665796390658173,0.508571566916013,0.2393960574029044
-0.0008660896390658174,0.5113300838837594,0.2424591185514944
-0.0008655996390658173,0.5133989716095692,0.2455221797000844
-0.0008651096390658174,0.5175367470611888,0.2485852408486744
-0.0008646196390658175,0.5192608201660303,0.2513079618696433
-0.0008641296390658173,0.5223641517547449,0.2536903427629911
-0.0008636396390658174,0.5275363710692694,0.25947612493255
-0.0008631496390658173,0.5299500734160475,0.2649215669744878
-0.0008626596390658174,0.5327085903837939,0.268324968250699
-0.0008621696390658173,0.5365015512144452,0.2700266688888046
-0.0008616796390658174,0.5396048828031599,0.2724090497821523
-0.0008611896390658175,0.5433978436338112,0.2747914306755001
-0.0008606996390658173,0.5475356190854307,0.2734300701650156
-0.0008602096390658174,0.5485700629483357,0.2747914306755001
-0.0008597196390658173,0.5523630237789869,0.277514151696469
-0.0008592296390658174,0.5561559846096382,0.280577212845059
-0.0008587396390658175,0.5602937600612578,0.2839806141212702
-0.0008582496390658174,0.5623626477870676,0.2880646956527235
-0.0008577596390658174,0.5647763501338456,0.2914680969289347
-0.0008572696390658173,0.5702933840693384,0.2948714982051458
-0.0008567796390658174,0.5727070864161166,0.2975942192261147
-0.0008562896390658173,0.5733967156580532,0.2996362599918414
-0.0008557996390658174,0.5778793057306409,0.3023589810128103
-0.0008553096390658175,0.581327451940324,0.3064430625442636
-0.0008548196390658173,0.5830515250451654,0.3088254434376114
-0.0008543296390658174,0.5878789297387217,0.3115481644585804
-0.0008538396390658173,0.5909822613274364,0.3146112256071704
-0.0008533496390658174,0.5933959636742144,0.316653266372897
-0.0008528596390658175,0.5954648514000243,0.3217583682872137
-0.0008523696390658174,0.5996026268516438,0.3268634702015304
-0.0008518796390658175,0.6047748461661683,0.3309475517329838
-0.0008513896390658173,0.6075333631339147,0.3333299326263316
-0.0008508996390658174,0.610291880101661,0.3367333339025427
-0.0008504096390658173,0.6133952116903757,0.3387753746682694
-0.0008499196390658174,0.6151192847952173,0.3391157147958905
-0.0008494296390658175,0.617188172521027,0.3380946944130272
-0.0008489396390658174,0.6202915041097417,0.3387753746682694
-0.0008484496390658174,0.6254637234242661,0.3404770753063749
-0.0008479596390658173,0.6282222403920126,0.3455821772206917
-0.0008474696390658174,0.6306359427387906,0.3489855784969028
-0.0008469796390658173,0.6327048304646005,0.352388979773114
-0.0008464896390658174,0.6351185328113785,0.355452040921704
-0.0008459996390658175,0.6392563082629981,0.358515102070294
-0.0008455096390658173,0.6409803813678396,0.3612378230912629
-0.0008450196390658174,0.6440837129565543,0.3639605441122318
-0.0008445296390658173,0.6478766737872056,0.3666832651332007
-0.0008440396390658174,0.6520144492388251,0.3704270065370329
-0.0008435496390658175,0.6540833369646349,0.3731497275580019
-0.0008430596390658174,0.6575314831743179,0.3748514281961074
-0.0008425696390658175,0.6613244440049691,0.3779144893446974
-0.0008420796390658173,0.663393331730779,0.3813178906209085
-0.0008415896390658174,0.666841477940462,0.3850616320247408
-0.0008410996390658173,0.6685655510453035,0.3898263938114364
-0.0008406096390658174,0.6730481411178914,0.3932297950876475
-0.0008401196390658175,0.6740825849807962,0.3959525161086164
-0.0008396296390658173,0.6771859165695109,0.3973138766191009
-0.0008391396390658174,0.6795996189162891,0.4000365976400698
-0.0008386496390658173,0.6820133212630671,0.3962928562362376
-0.0008381596390658174,0.6847718382308134,0.3979945568743431
-0.0008376696390658173,0.6885647990614647,0.3993559173848276
-0.0008371796390658174,0.6930473891340526,0.403780339043902
-0.0008366896390658175,0.6944266476179258,0.4071837403201132
-0.0008361996390658173,0.6968403499647039,0.4116081619791876
-0.0008357096390658174,0.699254052311482,0.4133098626172932
-0.0008352196390658173,0.702702198521165,0.4163729237658832
-0.0008347296390658174,0.706150344730848,0.4197763250420943
-0.0008342396390658175,0.7082192324566577,0.4228393861906844
-0.0008337496390658174,0.7102881201824676,0.4248814269564111
-0.0008332596390658174,0.7127018225292456,0.4276041479773799
-0.0008327696390658173,0.7168395979808653,0.4293058486154855
-0.0008322796390658174,0.718908485706675,0.4316882295088333
-0.0008317896390658173,0.7216670026744214,0.4354319709126656
-0.0008312996390658174,0.7230462611582946,0.4395160524441189
-0.0008308096390658175,0.7268392219889459,0.44291945372033
-0.0008303196390658173,0.7299425535776606,0.4466631951241623
-0.0008298296390658174,0.7333906997873435,0.4504069365279945
-0.0008293396390658173,0.7358044021341217,0.4510876167832368
-0.0008288496390658174,0.7371836606179948,0.4524489772937212
-0.0008283596390658175,0.7402869922067096,0.4555120384423113
-0.0008278696390658174,0.7430455091744559,0.451768297038479
-0.0008273796390658175,0.7447695822792973,0.4541506779318268
-0.0008268896390658173,0.7482177284889804,0.4558523785699323
-0.0008263996390658174,0.7502866162147902,0.4582347594632801
-0.0008259096390658173,0.7523555039405999,0.4619785008671124
-0.0008254196390658174,0.7554588355293147,0.4643608817604602
-0.0008249296390658175,0.7575277232551244,0.4674239429090502
-0.0008244396390658174,0.7606310548438391,0.4708273441852613
-0.0008239496390658174,0.7633895718115855,0.472869384950988
-0.0008234596390658173,0.765113644916427,0.4755921059719569
-0.0008229696390658174,0.7678721618841734,0.4779744868653047
-0.0008224796390658173,0.7699410496099832,0.4806972078862736
-0.0008219896390658174,0.7726995665777295,0.4827392486520003
-0.0008214996390658175,0.7758028981664442,0.4864829900558326
-0.0008210096390658173,0.7768373420293492,0.4895460512044226
-0.0008205196390658174,0.7799406736180639,0.490907411714907
-0.0008200296390658173,0.7820095613438737,0.4946511531187393
-0.0008195396390658174,0.7837336344487151,0.4973738741397082
-0.0008190496390658175,0.7868369660374298,0.4990755747778137
-0.0008185596390658174,0.7906299268680811,0.5034999964368883
-0.0008180696390658175,0.7930436292148592,0.5045210168197516
-0.0008175796390658173,0.7937332584567958,0.5052016970749937
-0.0008170896390658174,0.797526219287447,0.502819316181646
-0.0008165996390658173,0.797526219287447,0.502819316181646
-0.0008161096390658174,0.8023536239810032,0.5062227174578571
-0.0008156196390658175,0.8037328824648764,0.5092857786064471
-0.0008151296390658173,0.8064913994326228,0.5116681594997949
-0.0008146396390658174,0.8085602871584326,0.5143908805207639
-0.0008141496390658173,0.8092499164003691,0.5171136015417327
-0.0008136596390658174,0.8126980626100522,0.5198363225627016
-0.0008131696390658173,0.814766950335862,0.5222187034560495
-0.0008126796390658174,0.8178702819245767,0.5242607442217762
-0.0008121896390658175,0.8195943550294181,0.5256221047322606
-0.0008116996390658173,0.8233873158600694,0.5290255060084716
-0.0008112096390658174,0.8233873158600694,0.5310675467741984
-0.0008107196390658173,0.8264906474487841,0.5337902677951673
-0.0008102296390658174,0.8278699059326573,0.5348112881780306
-0.0008097396390658175,0.8302836082794354,0.5368533289437573
-0.0008092496390658174,0.8330421252471818,0.541958430858074
-0.0008087596390658174,0.8361454568358965,0.5422987709856951
-0.0008082696390658173,0.8375247153197697,0.5422987709856951
-0.0008077796390658174,0.8395936030455794,0.5460425123895274
-0.0008072896390658173,0.841317676150421,0.5504669340486018
-0.0008067996390658174,0.8426969346342942,0.5531896550695707
-0.0008063096390658175,0.8440761931181673,0.5552316958352974
-0.0008058196390658173,0.8489035978117235,0.556933396473403
-0.0008053296390658174,0.8499380416746284,0.5579544168562663
-0.0008048396390658173,0.8502828562955967,0.5589754372391297
-0.0008043496390658174,0.854075817126248,0.5562527162181607
-0.0008038596390658175,0.8547654463681845,0.5576140767286452
-0.0008033696390658174,0.8585584071988358,0.5593157773667508
-0.0008028796390658175,0.8595928510617408,0.5623788385153408
-0.0008023896390658173,0.8616617387875506,0.5647612194086886
-0.0008018996390658174,0.8626961826504554,0.5664629200467941
-0.0008014096390658173,0.8661443288601384,0.569185641067763
-0.0008009196390658174,0.8685580312069165,0.572248702216353
-0.0008004296390658175,0.8685580312069165,0.5746310831097009
-0.0007999396390658174,0.8709717335536946,0.5763327837478064
-0.0007994496390658174,0.8740750651424093,0.5783748245135332
-0.0007989596390658173,0.8747646943843459,0.5787151646411542
-0.0007984696390658174,0.8764887674891874,0.5800765251516387
-0.0007979796390658173,0.8802817283198386,0.5821185659173653
-0.0007974896390658174,0.8816609868037119,0.5845009468107132
-0.0007969996390658175,0.8820058014246801,0.587223667831682
-0.0007965096390658173,0.8840746891504899,0.5896060487250299
-0.0007960196390658174,0.8861435768762997,0.5909674092355143
-0.0007955296390658173,0.8878676499811412,0.5913077493631355
-0.0007950396390658174,0.8889020938440461,0.5936901302564832
-0.0007945496390658175,0.8909709815698559,0.5981145519155577
-0.0007940596390658174,0.8930398692956657,0.6008372729365266
-0.0007935696390658175,0.8954535716424438,0.6025389735746322
-0.0007930796390658173,0.8978672739892218,0.6028793137022532
-0.0007925896390658174,0.8989017178521268,0.6049213544679799
-0.0007920996390658173,0.9006257909569683,0.6035599939574955
-0.0007916096390658174,0.9033843079247147,0.6025389735746322
-0.0007911196390658175,0.9033843079247147,0.6025389735746322
-0.0007906296390658174,0.9051083810295562,0.6042406742127377
-0.0007901396390658174,0.9068324541343976,0.6069633952337067
-0.0007896496390658173,0.9075220833763342,0.6096861162546755
-0.0007891596390658174,0.9106254149650489,0.6107071366375388
-0.0007886696390658173,0.9116598588279538,0.6127491774032655
-0.0007881796390658174,0.9144183757957002,0.6147912181689922
-0.0007876896390658175,0.91648726352151,0.616833258934719
-0.0007871996390658173,0.9182113366263515,0.6175139391899611
-0.0007867096390658174,0.9171768927634466,0.619896320083309
-0.0007862196390658173,0.9178665220053832,0.6215980207214145
-0.0007857296390658174,0.9206250389731295,0.6239804016147623
-0.0007852396390658175,0.9223491120779711,0.6243207417423834
-0.0007847496390658174,0.9237283705618442,0.6256821022528679
-0.0007842596390658175,0.9230387413199076,0.6297661837843213
-0.0007837696390658173,0.9268317021505589,0.6297661837843213
-0.0007832796390658174,0.9275213313924955,0.6297661837843213
-0.0007827896390658173,0.9299350337392737,0.6301065239119423
-0.0007822996390658174,0.9309694776021785,0.6348712856986379
-0.0007818096390658175,0.9333831799489566,0.638274686974849
-0.0007813196390658173,0.9344176238118614,0.6392957073577124
-0.0007808296390658174,0.9378657700215445,0.6389553672300913
-0.0007803396390658173,0.9382105846425127,0.6416780882510602
-0.0007798496390658174,0.9395898431263859,0.6430394487615446
-0.0007793596390658175,0.9406242869892909,0.6389553672300913
-0.0007788696390658174,0.9413139162312275,0.6396360474853335
-0.0007783796390658175,0.943037989336069,0.6409974079958179
-0.0007778896390658173,0.9447620624409104,0.6433797888891657
-0.0007773996390658174,0.9464861355457519,0.6450814895272713
