Time (s),Channel 1 (V),Channel 2 (V)
-0.005119196428571429,-0.5958696640454466,-0.06384699630750754
-0.005117946428571428,-0.6024211418438443,-0.06656971732847644
-0.005116696428571428,-0.6117311366099917,-0.06759073771134071
-0.005115446428571428,-0.6189722436503226,-0.06963277847706645
-0.005114196428571428,-0.6248340922067837,-0.07201515937041425
-0.005112946428571429,-0.6351785308358326,-0.07303617975327759
-0.005111696428571428,-0.641385194013262,-0.07541856064662539
-0.005110446428571429,-0.648626301053593,-0.0767799211571092
-0.005109196428571428,-0.6569018519568354,-0.07882196192283653
-0.005107946428571428,-0.6634533297552364,-0.07916230205045871
-0.005106696428571428,-0.6706944367955674,-0.08154468294380543
-0.005105446428571428,-0.6775907292149365,-0.08324638358191162
-0.005104196428571428,-0.6844870216342993,-0.08460774409239544
-0.005102946428571428,-0.6920729432956019,-0.08699012498574324
-0.005101696428571429,-0.7010381234407776,-0.08801114536860657
-0.005100446428571428,-0.7079344158601436,-0.09005318613433325
-0.005099196428571429,-0.7148307082795065,-0.09073386638957517
-0.005097946428571428,-0.7217270006988755,-0.09311624728292328
-0.005096696428571428,-0.7268992200134038,-0.09413726766578739
-0.005095446428571428,-0.7351747709166392,-0.09583896830389219
-0.005094196428571428,-0.7427606925779443,-0.09651964855913517
-0.005092946428571428,-0.7482777265134345,-0.09822134919723996
-0.005091696428571428,-0.753449945827959,-0.0992423695801033
-0.005090446428571429,-0.7613806821102262,-0.09992304983534522
-0.005089196428571428,-0.7668977160457225,-0.1019650906010722
-0.005087946428571429,-0.7731043792231492,-0.103326451111556
-0.005086696428571428,-0.7803454862634862,-0.1046878116220411
-0.005085446428571428,-0.7865521494409181,-0.1057088320049051
-0.005084196428571428,-0.7920691833764084,-0.1070701925153889
-0.005082946428571428,-0.7972414026909328,-0.10741053264301
-0.005081696428571428,-0.8041376951102989,-0.1087718931534945
-0.005080446428571428,-0.8096547290457916,-0.1108139339192211
-0.005079196428571429,-0.8165510214651545,-0.1114946141744631
-0.005077946428571428,-0.8220680554006503,-0.1114946141744634
-0.005076696428571429,-0.8262058308522681,-0.1121752944297053
-0.005075446428571428,-0.8324124940296993,-0.1131963148125689
-0.005074196428571428,-0.8375847133442261,-0.1145576753230543
-0.005072946428571428,-0.8427569326587482,-0.1165997160887801
-0.005071696428571428,-0.848273966594241,-0.1169400562164012
-0.005070446428571429,-0.8531013712877972,-0.1183014167268857
-0.005069196428571428,-0.8579287759813533,-0.1179610765992645
-0.005067946428571429,-0.864480253779748,-0.1186417568545065
-0.005066696428571428,-0.8696524730942755,-0.1200031173649912
-0.005065446428571428,-0.8751695070297694,-0.1196627772373702
-0.005064196428571428,-0.8775832093765463,-0.1200031173649912
-0.005062946428571428,-0.8824106140701052,-0.1217048180030966
-0.005061696428571428,-0.8882724626265636,-0.1213644778754757
-0.005060446428571428,-0.8937894965620564,-0.1220451581307179
-0.005059196428571429,-0.8958583842878661,-0.122385498258339
-0.005057946428571428,-0.9006857889814224,-0.1220451581307179
-0.005056696428571429,-0.9062028229169126,-0.1230661785135808
-0.005055446428571428,-0.9093061545056298,-0.1230661785135812
-0.005054196428571428,-0.9155128176830604,-0.1230661785135817
-0.005052946428571428,-0.9182713346508056,-0.1240871988964446
-0.005051696428571428,-0.9227539247233946,-0.1230661785135814
-0.005050446428571428,-0.9251676270701715,-0.1234065186412024
-0.005049196428571428,-0.9293054025217912,-0.1230661785135812
-0.005047946428571429,-0.9330983633524407,-0.1227258383859603
-0.005046696428571428,-0.9362016949411571,-0.1234065186412024
-0.005045446428571429,-0.940684285013743,-0.1237468587688233
-0.005044196428571428,-0.9434428019814913,-0.1237468587688235
-0.005042946428571428,-0.9462013189492393,-0.1234065186412019
-0.005041696428571428,-0.9496494651589207,-0.122385498258339
-0.005040446428571428,-0.9537872406105403,-0.1217048180030968
-0.005039196428571428,-0.9558561283363501,-0.1217048180030968
-0.005037946428571428,-0.9599939037879697,-0.1217048180030968
-0.005036696428571429,-0.9620627915137786,-0.1217048180030968
-0.005035446428571428,-0.9644764938605576,-0.1206837976202334
-0.005034196428571429,-0.9672350108283028,-0.1210241377478544
-0.005032946428571428,-0.9699935277960503,-0.1206837976202334
-0.005031696428571428,-0.9724072301428296,-0.1196627772373698
-0.005030446428571428,-0.9751657471105748,-0.1189820969821279
-0.005029196428571428,-0.9775794494573529,-0.1176207364716434
-0.005027946428571428,-0.9793035225621943,-0.1172803963440223
-0.005026696428571428,-0.9810275956670359,-0.1176207364716434
-0.005025446428571429,-0.9830964833928447,-0.1162593759611596
-0.005024196428571428,-0.9861998149815604,-0.1152383555782956
-0.005022946428571428,-0.9879238880864023,-0.1145576753230528
-0.005021696428571428,-0.9889583319493067,-0.1131963148125689
-0.005020446428571428,-0.9899927758122129,-0.1118349543020844
-0.005019196428571428,-0.992751292779958,-0.1114946141744634
-0.005017946428571428,-0.9941305512638312,-0.1108139339192211
-0.005016696428571429,-0.9948201805057678,-0.1101332536639789
-0.005015446428571428,-0.9955098097477044,-0.1080912128982522
-0.005014196428571429,-0.996889068231577,-0.1067298523877684
-0.005012946428571428,-0.9975786974735142,-0.1046878116220411
-0.005011696428571428,-0.9986131413364199,-0.1043474714944191
-0.005010446428571428,-1.000337214441261,-0.1023054307286933
-0.005009196428571428,-1.001716472925134,-0.1012844103458294
-0.005007946428571428,-1.00240610216707,-0.09992304983534553
-0.005006696428571428,-1.001371658304166,-0.09958270970772443
-0.005005446428571429,-1.002061287546102,-0.09754066894199775
-0.005004196428571428,-1.003785360650944,-0.09583896830389219
-0.005002946428571429,-1.002406102167071,-0.09447760779340834
-0.005001696428571428,-1.003095731409007,-0.09311624728292328
-0.005000446428571428,-1.003440546029976,-0.09175488677243789
-0.004999196428571428,-1.005164619134817,-0.08971284600671214
-0.004997946428571428,-1.003095731409007,-0.08767080524098547
-0.004996696428571428,-1.002750916788039,-0.08664978485812211
-0.004995446428571428,-1.00240610216707,-0.08426740396477433
-0.004994196428571429,-1.00240610216707,-0.08324638358191146
-0.004992946428571428,-1.002061287546102,-0.0808640026885632
-0.004991696428571429,-1.002061287546102,-0.07916230205045841
-0.004990446428571428,-0.999647585199324,-0.07746060141235206
-0.004989196428571428,-1.001026843683196,-0.07507822051900317
-0.004987946428571428,-0.9986131413364191,-0.07269583962565648
-0.004986696428571428,-0.9986131413364191,-0.07133447911517202
-0.004985446428571428,-0.9968890682315776,-0.06963277847706645
-0.004984196428571428,-0.9951649951267361,-0.06759073771133978
-0.004982946428571429,-0.9951649951267361,-0.06452767656275116
-0.004981696428571428,-0.9930961074009264,-0.06384699630750754
-0.004980446428571428,-0.9917168489170523,-0.06146461541415851
-0.004979196428571428,-0.9896479611912433,-0.05874189439319084
-0.004977946428571428,-0.9879238880864012,-0.05738053388270498
-0.004976696428571428,-0.9865446296025286,-0.05431747273411636
-0.004975446428571428,-0.9844757418767188,-0.05329645235125302
-0.004974196428571429,-0.9824068541509091,-0.05091407145790523
-0.004972946428571428,-0.9806827810460675,-0.04887203069217855
-0.004971696428571429,-0.9796483371831631,-0.0468299899264528
-0.004970446428571428,-0.9758553763525114,-0.04342658865024074
-0.004969196428571428,-0.9751657471105736,-0.04206522813975459
-0.004967946428571428,-0.9724072301428284,-0.03832148673592404
-0.004966696428571428,-0.969303898554113,-0.03661978609781755
-0.004965446428571428,-0.9679246400702405,-0.03457774533209179
-0.004964196428571428,-0.963786864618621,-0.03253570456636511
-0.004962946428571429,-0.9630972353766843,-0.03015332367301732
-0.004961696428571428,-0.9593042745460331,-0.02743060265204842
-0.004960446428571429,-0.9544768698524791,-0.02606924214156458
-0.004959196428571428,-0.9520631675056989,-0.02266584086535283
-0.004957946428571428,-0.9499942797798873,-0.01960277971676188
-0.004956696428571428,-0.9462013189492378,-0.01756073895103613
-0.004955446428571428,-0.9427531727395547,-0.01517835805768834
-0.004954196428571428,-0.9382705826669668,-0.01211529690909832
-0.004952946428571428,-0.9351672510782522,-0.01075393639861387
-0.004951696428571429,-0.9313742902476027,-0.0080312153776462
-0.004950446428571428,-0.927926144037918,-0.005989174611918282
-0.004949196428571429,-0.9251676270701727,-0.003947133846192531
-0.004947946428571428,-0.921029851618552,-0.0008840726976015842
-0.004946696428571428,-0.9165472615459629,0.001498308195747911
-0.004945446428571428,-0.9137887445782177,0.005242049599578454
-0.004944196428571428,-0.9093061545056298,0.00694375023768402
-0.004942946428571428,-0.9041339351911053,0.009326131131031814
-0.004941696428571428,-0.900340974360454,0.01170851202437961
-0.004940446428571429,-0.8958583842878681,0.01443123304534727
-0.004939196428571428,-0.8906861649733417,0.01545225342821185
-0.004937946428571429,-0.8868932041426922,0.01987667508728431
-0.004936696428571428,-0.8827554286910708,0.02089769547014966
-0.004935446428571428,-0.8768935801346077,0.02430109674636157
-0.004934196428571428,-0.8724109900620219,0.02600279738446636
-0.004932946428571428,-0.8668939561265291,0.02974653878829861
-0.004931696428571429,-0.8620665514329729,0.03110789929878306
-0.004930446428571428,-0.8568943321184485,0.03314994006450974
-0.004929196428571429,-0.8534461859087671,0.03655334134071932
-0.004927946428571428,-0.8472395227313361,0.03859538210644755
-0.004926696428571428,-0.8424121180377779,0.04165844325503865
-0.004925446428571428,-0.837929527965192,0.04404082414838537
-0.004924196428571428,-0.8299987916829193,0.04608286491411359
-0.004922946428571428,-0.8258610162313016,0.04948626619032317
-0.004921696428571428,-0.8189647238119356,0.05050728657318651
-0.004920446428571429,-0.8148269483603161,0.05323000759415542
-0.004919196428571428,-0.8082754705619184,0.05561238848750321
-0.004917946428571429,-0.8017239927635237,0.05765442925322896
-0.004916696428571428,-0.7962069588280279,0.05969647001895657
-0.004915446428571428,-0.7903451102715642,0.06173851078468433
-0.004914196428571428,-0.7844832617151059,0.06412089167803103
-0.004912946428571428,-0.7772421546747688,0.06650327257137992
-0.004911696428571428,-0.7710354914973422,0.06888565346472664
-0.004910446428571428,-0.7651736429408811,0.07092769423045331
-0.004909196428571429,-0.7589669797634545,0.07399075537904193
-0.004907946428571428,-0.7520706873440858,0.07535211588952778
-0.004906696428571429,-0.7468984680295636,0.0777344967828745
-0.004905446428571428,-0.7396573609892271,0.07875551716573892
-0.004904196428571428,-0.7341403270537303,0.08181857831432986
-0.004902946428571428,-0.7255199615295268,0.0838606190800556
-0.004901696428571428,-0.7193132983520975,0.0862429999734034
-0.004900446428571428,-0.7124170059327315,0.08828504073913007
-0.004899196428571428,-0.706210342755302,0.09032708150485677
-0.004897946428571429,-0.6989692357149712,0.09168844201534058
-0.004896696428571428,-0.6906936848117287,0.09373048278106788
-0.004895446428571429,-0.6851766508762385,0.09543218341917267
-0.004894196428571428,-0.6765562853520284,0.09713388405727902
-0.004892946428571428,-0.6703496221745955,0.0995162649506276
-0.004891696428571428,-0.6624188858923282,0.1012179655887324
-0.004890446428571428,-0.6534537057471524,0.1025793260992168
-0.004889196428571429,-0.6458677840858499,0.1053020471201857
-0.004887946428571428,-0.6396611209084205,0.105982727375428
-0.004886696428571429,-0.6331096431100258,0.1093861286516375
-0.004885446428571428,-0.6244892775858154,0.1097264687792602
-0.004884196428571428,-0.6165585413035412,0.1110878292897454
-0.004882946428571428,-0.6093174342632103,0.1127895299278502
-0.004881696428571428,-0.6010418833599678,0.1144912305659564
-0.004880446428571428,-0.5938007763196368,0.1158525910764402
-0.004879196428571428,-0.584835596174461,0.118234971969788
-0.004877946428571429,-0.576560045271222,0.1192559923526514
-0.004876696428571428,-0.5682844943679828,0.1202770127355147
-0.004875446428571429,-0.5617330165695881,0.1212980331183776
-0.004874196428571428,-0.5527678364244093,0.1233400738841048
-0.004872946428571428,-0.5448371001421344,0.1243610942669687
-0.004871696428571428,-0.5358719199969627,0.1257224547774526
-0.004870446428571428,-0.5272515544727515,0.1267434751603164
-0.004869196428571428,-0.5189760035695161,0.1277644955431792
-0.004867946428571428,-0.5113900819082136,0.1284451757984215
-0.004866696428571429,-0.5020800871420736,0.1304872165641472
-0.004865446428571428,-0.4941493508597987,0.1321889172022537
-0.004864196428571429,-0.4851841707146269,0.1335502777127375
-0.004862946428571428,-0.4765638051904154,0.1335502777127381
-0.004861696428571428,-0.4675986250452356,0.1342309579679807
-0.004860446428571428,-0.4586334449000639,0.1349116382232226
-0.004859196428571428,-0.4489786355129516,0.1369536789889493
-0.004857946428571428,-0.4420823430935856,0.1366133388613282
-0.004856696428571428,-0.4313930898435683,0.1379746993718126
-0.004855446428571429,-0.4234623535613011,0.1386553796270545
-0.004854196428571428,-0.41484198803709,0.1396764000099182
-0.004852946428571429,-0.4055319932709502,0.1396764000099182
-0.004851696428571428,-0.3962219985048019,0.1410377605204026
-0.004850446428571428,-0.3876016329805907,0.1413781006480239
-0.004849196428571428,-0.3793260820773553,0.1417184407756449
-0.004847946428571428,-0.3686368288273381,0.142058780903266
-0.004846696428571429,-0.3589820194402257,0.1423991210308871
-0.004845446428571428,-0.3513960977789231,0.1427394611585082
-0.004844196428571429,-0.3427757322547196,0.1434201414137501
-0.004842946428571428,-0.3338105521095399,0.1441008216689927
-0.004841696428571428,-0.3227764842385504,0.143760481541372
-0.004840446428571428,-0.3141561187143469,0.1447815019242349
-0.004839196428571428,-0.3031220508433574,0.1444411617966141
-0.004837946428571428,-0.2945016853191539,0.145121842051856
-0.004836696428571428,-0.2851916905530099,0.145121842051856
-0.004835446428571429,-0.2758816957868658,0.1444411617966138
-0.004834196428571428,-0.2662268863997534,0.1447815019242349
-0.004832946428571429,-0.2562272623916773,0.1458025223070978
-0.004831696428571428,-0.247262082246497,0.1454621821794771
-0.004830446428571428,-0.2369176436174443,0.1444411617966141
-0.004829196428571428,-0.2286420927142089,0.145121842051856
-0.004827946428571428,-0.2207113564319326,0.1444411617966136
-0.004826696428571428,-0.2086428446980476,0.1441008216689927
-0.004825446428571428,-0.1989880353109352,0.1437604815413716
-0.004824196428571429,-0.1893332259238273,0.1437604815413716
-0.004822946428571428,-0.1800232311576788,0.1434201414137504
-0.004821696428571429,-0.1703684217705709,0.1437604815413714
-0.004820446428571428,-0.1607136123834541,0.1417184407756449
-0.004819196428571428,-0.1503691737544008,0.1417184407756447
-0.004817946428571428,-0.1407143643672928,0.1413781006480238
-0.004816696428571428,-0.1314043696011488,0.1406974203927815
-0.004815446428571428,-0.1210599309720998,0.1400167401375393
-0.004814196428571428,-0.1117499362059558,0.1393360598822971
-0.004812946428571429,-0.1017503121978797,0.1386553796270552
-0.004811696428571428,-0.09244031743173105,0.1386553796270548
-0.004810446428571429,-0.08244069342365495,0.1369536789889501
-0.004809196428571428,-0.07278588403653805,0.1359326586060859
-0.004807946428571428,-0.0624414454074847,0.1349116382232226
-0.004806696428571428,-0.05278663602037674,0.1349116382232226
-0.004805446428571428,-0.04209738277035949,0.1342309579679804
-0.004804196428571429,-0.03140812952034224,0.1318485770746326
-0.004802946428571428,-0.02382220785903968,0.130146876436527
-0.004801696428571429,-0.01347776922999543,0.1291258560536641
-0.004800446428571428,-0.003478145221910076,0.1284451757984215
-0.004799196428571428,0.006521478786175437,0.1277644955431788
-0.004797946428571428,0.01721073203618783,0.1267434751603159
-0.004796696428571428,0.02617591218136782,0.1243610942669676
-0.004795446428571428,0.03548590694750764,0.1233400738841048
-0.004794196428571428,0.04617516019752489,0.1223190535012414
-0.004792946428571429,0.05582996958463724,0.120957692990757
-0.004791696428571428,0.06548477897174959,0.1189156522250303
-0.004790446428571429,0.0754844029798257,0.1168736114593045
-0.004789196428571428,0.084449583125006,0.115171910821198
-0.004787946428571428,0.09444920713309152,0.113810550310713
-0.004786696428571428,0.1051384603831039,0.1124491898002291
-0.004785446428571428,0.114793269770221,0.1107474891621226
-0.004784196428571428,0.1251377083992652,0.1087054483963969
-0.004782946428571428,0.1347925177863776,0.1073440878859124
-0.004781696428571429,0.1434128833105811,0.1056423872478076
-0.004780446428571428,0.153757321939634,0.1046213668649435
-0.004779196428571429,0.1637569459477101,0.1018986458439759
-0.004777946428571428,0.1723773114719221,0.09951626495062682
-0.004776696428571428,0.1827217501009756,0.09679354392965714
-0.004775446428571428,0.1927213741090517,0.09509184329155235
-0.004774196428571428,0.2020313688751957,0.09304980252582568
-0.004772946428571428,0.2120309928832764,0.09066742163247787
-0.004771696428571428,0.2216858022703888,0.0886253808667512
-0.004770446428571429,0.2313406116574967,0.08658334010102543
-0.004769196428571428,0.2423746795284866,0.08522197959054006
-0.004767946428571429,0.2499606011897857,0.08215891844195145
-0.004766696428571428,0.2592705959559333,0.07909585729336002
-0.004765446428571428,0.2678909614801457,0.0780748369104953
-0.004764196428571428,0.2789250293511263,0.07501177576190668
-0.004762946428571428,0.2892694679801752,0.07399075537904332
-0.004761696428571429,0.2985794627463192,0.07092769423045331
-0.004760446428571428,0.3065101990285901,0.0682049732094844
-0.004759196428571429,0.31582019379473,0.06616293244375866
-0.004757946428571428,0.3254750031818465,0.06378055155040993
-0.004756696428571428,0.3351298125689633,0.06139817065706059
-0.004755446428571428,0.3447846219560712,0.05799476938085101
-0.004754196428571428,0.3544394313431869,0.05561238848750213
-0.004752946428571428,0.3616805383835179,0.05323000759415542
-0.004751696428571428,0.3713353477706302,0.05118796682842874
-0.004750446428571429,0.3816797863996792,0.04846524580745983
-0.004749196428571428,0.3913345957867915,0.04642320504173315
-0.004747946428571429,0.3992653320690588,0.04404082414838645
-0.004746696428571428,0.4082305122142382,0.04131810312741645
-0.004745446428571428,0.4175405069803867,0.03825504197882505
-0.004744196428571428,0.4275401309884628,0.03519198083023642
-0.004742946428571428,0.4351260526497687,0.03349028019212946
-0.004741696428571428,0.4423671596900997,0.03042721904354083
-0.004740446428571428,0.4523667836981803,0.02838517827781415
-0.004739196428571429,0.4616767784643201,0.02600279738446745
-0.004737946428571428,0.4702971439885318,0.02328007636349745
-0.004736696428571429,0.4796071387546717,0.01919599483204595
-0.004735446428571428,0.4875378750369468,0.01783463432155964
-0.004734196428571428,0.497882313665999,0.01579259355583157
-0.004732946428571428,0.5051234207063301,0.01272953240724294
-0.004731696428571428,0.5140886008515058,0.009326131131031814
-0.004730446428571428,0.5216745225128083,0.00694375023768402
-0.004729196428571428,0.5306397026579841,0.004901709471957341
-0.004727946428571429,0.5385704389402515,0.002178988450989673
-0.004726696428571428,0.5465011752225258,-0.0002033924423593578
-0.004725446428571429,0.5551215407467294,-0.003266453590947984
-0.004724196428571428,0.5623626477870676,-0.005648834484297169
-0.004722946428571428,0.5706381986903103,-0.008371555505266848
-0.004721696428571428,0.5785689349725776,-0.01007325614337164
-0.004720446428571428,0.5871893004967851,-0.01279597716434055
-0.004719196428571429,0.5951200367790559,-0.01449767780244611
-0.004717946428571428,0.6037404023032634,-0.01858175933389947
-0.004716696428571429,0.612705582448435,-0.02028345997200427
